node#	P(bar)	T(K)	O	Cpx	Opx	Gt	C2/c	Wad	sp	Pl	
1	768.75	1500	64.5717	5.83458	17.872	0	0	0	0	11.7217	
2	2252.5	1500	64.3177	7.27008	17.5244	0	0	0	0	10.8878	
3	3743.75	1500	63.9003	9.52691	17.0107	0	0	0	0	9.56211	
4	5222.5	1500	63.2307	12.7685	16.5139	0	0	0	0	7.48683	
5	6718.75	1500	62.1016	16.416	17.373	0	0	0	0	4.10934	
6	8256.25	1500	60.2549	20.1329	19.2024	0	0	0	0.409844	0	
7	9727.5	1500	60.2185	20.1734	19.1569	0	0	0	0.451231	0	
8	11231.2	1500	60.1823	20.211	19.1144	0	0	0	0.492295	0	
9	12697.5	1500	60.1479	20.2347	19.0863	0	0	0	0.531116	0	
10	14206.2	1500	60.1144	20.2534	19.0631	0	0	0	0.569092	0	
11	15858.1	1500	60.0771	20.2762	19.0357	0	0	0	0.611065	0	
12	17549.4	1500	60.9212	19.9	15.6616	3.5171	0	0	0	0	
13	19240.6	1500	61.0293	19.9482	13.3542	5.66827	0	0	0	0	
14	20931.9	1500	61.1042	20.0819	11.6413	7.17264	0	0	0	0	
15	22623.1	1500	61.1568	20.2726	10.3351	8.2355	0	0	0	0	
16	24314.4	1500	61.1947	20.4727	9.32837	9.0042	0	0	0	0	
17	26051.2	1500	61.2232	20.6637	8.5248	9.58826	0	0	0	0	
18	27793.8	1500	61.2446	20.8362	7.88805	10.0311	0	0	0	0	
19	29488.1	1500	61.2605	20.9772	7.39617	10.3661	0	0	0	0	
20	31179.4	1500	61.2729	21.0918	7.0033	10.6319	0	0	0	0	
21	32870.6	1500	61.2828	21.1835	6.6857	10.848	0	0	0	0	
22	34561.9	1500	61.2908	21.2531	6.42963	11.0264	0	0	0	0	
23	36253.1	1500	61.2973	21.2975	6.22995	11.1753	0	0	0	0	
24	37948.8	1500	61.3026	21.3282	6.0669	11.3023	0	0	0	0	
25	39691.2	1500	61.3071	21.3412	5.93719	11.4144	0	0	0	0	
26	41426.9	1500	61.3109	21.3343	5.84357	11.5113	0	0	0	0	
27	43118.1	1500	61.3139	21.319	5.77264	11.5944	0	0	0	0	
28	44809.4	1500	61.3165	21.2884	5.7265	11.6686	0	0	0	0	
29	46500.6	1500	61.3187	21.2503	5.69541	11.7356	0	0	0	0	
30	48203.8	1500	61.3206	21.2013	5.68094	11.7971	0	0	0	0	
31	49946.2	1500	61.3223	21.1428	5.67981	11.8551	0	0	0	0	
32	51674.4	1500	61.3237	21.0727	5.6949	11.9087	0	0	0	0	
33	53365.6	1500	61.325	21.008	5.70874	11.9583	0	0	0	0	
34	55056.9	1500	61.3261	20.9346	5.73384	12.0055	0	0	0	0	
35	56748.1	1500	61.327	20.8569	5.7652	12.0509	0	0	0	0	
36	58439.4	1500	61.3279	20.7779	5.79922	12.095	0	0	0	0	
37	60130.6	1500	61.3287	20.6914	5.84172	12.1382	0	0	0	0	
38	61843.8	1500	61.3295	20.6036	5.88542	12.1815	0	0	0	0	
39	63586.2	1500	61.3302	20.5144	5.93003	12.2254	0	0	0	0	
40	65304.4	1500	61.3309	20.4233	5.97697	12.2688	0	0	0	0	
41	66995.6	1500	61.3315	20.3331	6.02317	12.3122	0	0	0	0	
42	68686.9	1500	61.3322	20.2427	6.06886	12.3562	0	0	0	0	
43	70378.1	1500	61.3329	20.1516	6.11417	12.4014	0	0	0	0	
44	72098.8	1500	61.3336	20.0604	6.15734	12.4487	0	0	0	0	
45	73841.2	1500	61.3344	19.9672	6.20002	12.4984	0	0	0	0	
46	75583.8	1500	61.3352	19.8735	6.24121	12.5502	0	0	0	0	
47	77326.2	1500	61.336	19.7808	6.27895	12.6043	0	0	0	0	
48	79103.1	1500	61.337	19.6877	6.31302	12.6623	0	0	0	0	
49	80896.9	1500	61.3381	19.5951	6.34258	12.7243	0	0	0	0	
50	82653.8	1500	61.3392	19.5042	6.36809	12.7885	0	0	0	0	
51	84396.3	1500	61.3405	19.415	6.38822	12.8563	0	0	0	0	
52	86138.8	1500	61.3419	19.3265	6.40287	12.9287	0	0	0	0	
53	87881.3	1500	61.3434	19.2332	6.41725	13.0061	0	0	0	0	
54	89665.6	1500	61.4003	19.0801	0	13.1124	6.4072	0	0	0	
55	91459.4	1500	61.4037	18.7462	0	13.1886	6.66159	0	0	0	
56	93208.7	1500	61.4069	18.4432	0	13.2678	6.88211	0	0	0	
57	94951.2	1500	61.4101	18.1529	0	13.3516	7.08545	0	0	0	
58	96740.6	1500	61.4133	17.8801	0	13.4439	7.26261	0	0	0	
59	98534.4	1500	61.4166	17.6155	0	13.543	7.42493	0	0	0	
60	100279	1500	61.4199	17.3737	0	13.6466	7.55991	0	0	0	
61	102022	1500	61.4232	17.1434	0	13.758	7.6754	0	0	0	
62	103816	1500	61.4268	16.918	0	13.8817	7.77349	0	0	0	
63	105609	1500	61.4305	16.7028	0	14.016	7.85066	0	0	0	
64	107403	1500	61.4345	16.4955	0	14.1617	7.90821	0	0	0	
65	109197	1500	61.4388	16.2926	0	14.3208	7.94778	0	0	0	
66	110991	1500	61.4434	16.0987	0	14.4952	7.96281	0	0	0	
67	112784	1500	61.4484	15.9123	0	14.6858	7.95351	0	0	0	
68	114578	1500	61.4539	15.7278	0	14.8968	7.92158	0	0	0	
69	116372	1500	61.46	15.5459	0	15.1299	7.86423	0	0	0	
70	118166	1500	61.4668	15.367	0	15.3891	7.77717	0	0	0	
71	119959	1500	61.4744	15.1885	0	15.679	7.65816	0	0	0	
72	121753	1500	61.4829	15.0086	0	16.0044	7.50411	0	0	0	
73	123547	1500	61.4927	14.8269	0	16.3727	7.30765	0	0	0	
74	125341	1500	61.5039	14.6425	0	16.7905	7.06316	0	0	0	
75	127134	1500	61.5168	14.4502	0	17.2683	6.76471	0	0	0	
76	128928	1500	47.5802	14.4892	0	17.5927	6.67754	13.6604	0	0	
77	130722	1500	0	14.9412	0	17.8011	6.98565	60.272	0	0	
78	132516	1500	0	14.7238	0	18.3511	6.63321	60.2919	0	0	
79	134379	1500	0	14.4844	0	19.0159	6.18466	60.315	0	0	
80	136326	1500	0	14.2138	0	19.8358	5.60754	60.3428	0	0	
